QualityLabPlotNumber,plot_id,gid,400,402,404,406,408,410,412,414,416,418,420,422,424,426,428,430,432,434,436,438,440,442,444,446,448,450,452,454,456,458,460,462,464,466,468,470,472,474,476,478,480,482,484,486,488,490,492,494,496,498,500,502,504,506,508,510,512,514,516,518,520,522,524,526,528,530,532,534,536,538,540,542,544,546,548,550,552,554,556,558,560,562,564,566,568,570,572,574,576,578,580,582,584,586,588,590,592,594,596,598,600,602,604,606,608,610,612,614,616,618,620,622,624,626,628,630,632,634,636,638,640,642,644,646,648,650,652,654,656,658,660,662,664,666,668,670,672,674,676,678,680,682,684,686,688,690,692,694,696,698,700,702,704,706,708,710,712,714,716,718,720,722,724,726,728,730,732,734,736,738,740,742,744,746,748,750,752,754,756,758,760,762,764,766,768,770,772,774,776,778,780,782,784,786,788,790,792,794,796,798,800,802,804,806,808,810,812,814,816,818,820,822,824,826,828,830,832,834,836,838,840,842,844,846,848,850,852,854,856,858,860,862,864,866,868,870,872,874,876,878,880,882,884,886,888,890,892,894,896,898,900,902,904,906,908,910,912,914,916,918,920,922,924,926,928,930,932,934,936,938,940,942,944,946,948,950,952,954,956,958,960,962,964,966,968,970,972,974,976,978,980,982,984,986,988,990,992,994,996,998,1000,1002,1004,1006,1008,1010,1012,1014,1016,1018,1020,1022,1024,1026,1028,1030,1032,1034,1036,1038,1040,1042,1044,1046,1048,1050,1052,1054,1056,1058,1060,1062,1064,1066,1068,1070,1072,1074,1076,1078,1080,1082,1084,1086,1088,1090,1092,1094,1096,1098,1100,1102,1104,1106,1108,1110,1112,1114,1116,1118,1120,1122,1124,1126,1128,1130,1132,1134,1136,1138,1140,1142,1144,1146,1148,1150,1152,1154,1156,1158,1160,1162,1164,1166,1168,1170,1172,1174,1176,1178,1180,1182,1184,1186,1188,1190,1192,1194,1196,1198,1200,1202,1204,1206,1208,1210,1212,1214,1216,1218,1220,1222,1224,1226,1228,1230,1232,1234,1236,1238,1240,1242,1244,1246,1248,1250,1252,1254,1256,1258,1260,1262,1264,1266,1268,1270,1272,1274,1276,1278,1280,1282,1284,1286,1288,1290,1292,1294,1296,1298,1300,1302,1304,1306,1308,1310,1312,1314,1316,1318,1320,1322,1324,1326,1328,1330,1332,1334,1336,1338,1340,1342,1344,1346,1348,1350,1352,1354,1356,1358,1360,1362,1364,1366,1368,1370,1372,1374,1376,1378,1380,1382,1384,1386,1388,1390,1392,1394,1396,1398,1400,1402,1404,1406,1408,1410,1412,1414,1416,1418,1420,1422,1424,1426,1428,1430,1432,1434,1436,1438,1440,1442,1444,1446,1448,1450,1452,1454,1456,1458,1460,1462,1464,1466,1468,1470,1472,1474,1476,1478,1480,1482,1484,1486,1488,1490,1492,1494,1496,1498,1500,1502,1504,1506,1508,1510,1512,1514,1516,1518,1520,1522,1524,1526,1528,1530,1532,1534,1536,1538,1540,1542,1544,1546,1548,1550,1552,1554,1556,1558,1560,1562,1564,1566,1568,1570,1572,1574,1576,1578,1580,1582,1584,1586,1588,1590,1592,1594,1596,1598,1600,1602,1604,1606,1608,1610,1612,1614,1616,1618,1620,1622,1624,1626,1628,1630,1632,1634,1636,1638,1640,1642,1644,1646,1648,1650,1652,1654,1656,1658,1660,1662,1664,1666,1668,1670,1672,1674,1676,1678,1680,1682,1684,1686,1688,1690,1692,1694,1696,1698,1700,1702,1704,1706,1708,1710,1712,1714,1716,1718,1720,1722,1724,1726,1728,1730,1732,1734,1736,1738,1740,1742,1744,1746,1748,1750,1752,1754,1756,1758,1760,1762,1764,1766,1768,1770,1772,1774,1776,1778,1780,1782,1784,1786,1788,1790,1792,1794,1796,1798,1800,1802,1804,1806,1808,1810,1812,1814,1816,1818,1820,1822,1824,1826,1828,1830,1832,1834,1836,1838,1840,1842,1844,1846,1848,1850,1852,1854,1856,1858,1860,1862,1864,1866,1868,1870,1872,1874,1876,1878,1880,1882,1884,1886,1888,1890,1892,1894,1896,1898,1900,1902,1904,1906,1908,1910,1912,1914,1916,1918,1920,1922,1924,1926,1928,1930,1932,1934,1936,1938,1940,1942,1944,1946,1948,1950,1952,1954,1956,1958,1960,1962,1964,1966,1968,1970,1972,1974,1976,1978,1980,1982,1984,1986,1988,1990,1992,1994,1996,1998,2000,2002,2004,2006,2008,2010,2012,2014,2016,2018,2020,2022,2024,2026,2028,2030,2032,2034,2036,2038,2040,2042,2044,2046,2048,2050,2052,2054,2056,2058,2060,2062,2064,2066,2068,2070,2072,2074,2076,2078,2080,2082,2084,2086,2088,2090,2092,2094,2096,2098,2100,2102,2104,2106,2108,2110,2112,2114,2116,2118,2120,2122,2124,2126,2128,2130,2132,2134,2136,2138,2140,2142,2144,2146,2148,2150,2152,2154,2156,2158,2160,2162,2164,2166,2168,2170,2172,2174,2176,2178,2180,2182,2184,2186,2188,2190,2192,2194,2196,2198,2200,2202,2204,2206,2208,2210,2212,2214,2216,2218,2220,2222,2224,2226,2228,2230,2232,2234,2236,2238,2240,2242,2244,2246,2248,2250,2252,2254,2256,2258,2260,2262,2264,2266,2268,2270,2272,2274,2276,2278,2280,2282,2284,2286,2288,2290,2292,2294,2296,2298,2300,2302,2304,2306,2308,2310,2312,2314,2316,2318,2320,2322,2324,2326,2328,2330,2332,2334,2336,2338,2340,2342,2344,2346,2348,2350,2352,2354,2356,2358,2360,2362,2364,2366,2368,2370,2372,2374,2376,2378,2380,2382,2384,2386,2388,2390,2392,2394,2396,2398,2400,2402,2404,2406,2408,2410,2412,2414,2416,2418,2420,2422,2424,2426,2428,2430,2432,2434,2436,2438,2440,2442,2444,2446,2448,2450,2452,2454,2456,2458,2460,2462,2464,2466,2468,2470,2472,2474,2476,2478,2480,2482,2484,2486,2488,2490,2492,2494,2496,2498
322,1,2,0.9443957,0.952774,0.9598947,0.965796,0.9704517,0.9739376,0.9764001,0.9780051,0.9789253,0.9792911,0.9790668,0.978151,0.9766521,0.974821,0.9727614,0.9704528,0.9680477,0.9657297,0.9634629,0.9611759,0.9589417,0.9569044,0.9550326,0.9531419,0.9511668,0.9491214,0.9470121,0.9447897,0.9423884,0.9397658,0.9369076,0.9338608,0.9306192,0.9272459,0.9238474,0.9204913,0.9172316,0.9141409,0.9111651,0.9082525,0.905345,0.9024367,0.8994853,0.8964078,0.8930655,0.889394,0.8853586,0.8809577,0.8761863,0.8710916,0.8656834,0.8600169,0.8541566,0.8482085,0.8422518,0.8363172,0.8304359,0.8246259,0.8189506,0.8134252,0.8080332,0.8027542,0.7975689,0.7924415,0.787324,0.7821742,0.7769905,0.771803,0.7666381,0.7614847,0.7563177,0.7511029,0.7458197,0.7404633,0.7350289,0.7294978,0.7238562,0.7180973,0.7122349,0.7063119,0.7003876,0.6945057,0.6886999,0.6829896,0.67737,0.6718174,0.6663275,0.660902,0.6555318,0.6501922,0.6448834,0.6396117,0.6343651,0.6291716,0.624045,0.6189777,0.6139909,0.6090854,0.6042432,0.5994712,0.5947762,0.590128,0.585505,0.5808952,0.5763148,0.5717946,0.5673712,0.563083,0.5589492,0.5549736,0.5511549,0.5474719,0.5438926,0.5403786,0.5368767,0.5333512,0.5297527,0.5260193,0.522112,0.5180162,0.5137264,0.509265,0.5046734,0.5000075,0.49533,0.4907177,0.4862216,0.4818411,0.4775413,0.4732927,0.4690908,0.4649419,0.4608696,0.4568864,0.4529976,0.4492098,0.4455296,0.4419726,0.4385334,0.4352062,0.4319755,0.4288306,0.4257673,0.4227768,0.4198508,0.4169846,0.4141732,0.4114099,0.4086934,0.4060182,0.4033799,0.4007753,0.3982013,0.3956603,0.3931491,0.3906655,0.3882084,0.3857767,0.3833779,0.3810091,0.3786716,0.3763667,0.3740956,0.3718649,0.3696734,0.3675168,0.3653915,0.3632978,0.3612346,0.3592044,0.3572084,0.3552387,0.3532933,0.351375,0.3494813,0.3476034,0.3457293,0.3438543,0.3419744,0.3400875,0.3381841,0.3362618,0.3343299,0.3323925,0.3304527,0.328513,0.3265764,0.3246512,0.3227478,0.3208768,0.3190369,0.3172189,0.315423,0.3136592,0.3119329,0.3102432,0.3085782,0.3069237,0.3052705,0.303621,0.3019785,0.3003369,0.2986944,0.2970572,0.2954368,0.2938384,0.2922682,0.2907462,0.2892837,0.2878656,0.2864809,0.285131,0.2838155,0.2825299,0.2812771,0.2800604,0.2788752,0.2777157,0.2765669,0.2754267,0.2742915,0.2731592,0.2720318,0.2709135,0.2698053,0.2687099,0.2676368,0.2665902,0.2655779,0.2646086,0.2636848,0.2628098,0.261984,0.2612227,0.2605276,0.2599089,0.2593673,0.2588932,0.258491,0.2581727,0.2579456,0.2578205,0.2578016,0.2578929,0.2580976,0.2584143,0.25884,0.2593634,0.259973,0.2606578,0.2614069,0.2622048,0.2630299,0.2638498,0.2646265,0.2653214,0.2658973,0.2663212,0.2665738,0.2666453,0.2665393,0.2662684,0.2658551,0.2653259,0.264708,0.2640325,0.2633318,0.2626396,0.2619888,0.2614166,0.2609663,0.2606823,0.2606049,0.2607727,0.2612256,0.2619996,0.2631217,0.2646042,0.2664435,0.2686116,0.2710728,0.2737852,0.2767052,0.2797964,0.2830228,0.2863484,0.2897285,0.2931091,0.2964212,0.2995887,0.3025449,0.305226,0.3075877,0.3096041,0.3112687,0.3125923,0.3135985,0.314311,0.314764,0.3149874,0.3150096,0.3148597,0.3145617,0.3141376,0.3136027,0.3129698,0.3122447,0.3114308,0.3105271,0.3095333,0.3084475,0.3072782,0.306035,0.3047292,0.3033717,0.3019729,0.300546,0.2991017,0.297647,0.2961931,0.2947481,0.2933209,0.2919126,0.2905253,0.289159,0.287807,0.2864634,0.2851198,0.2837697,0.2824069,0.2810306,0.2796467,0.2782637,0.2768924,0.2755442,0.2742288,0.2729551,0.271729,0.2705592,0.2694508,0.2684041,0.2674201,0.266492,0.2656281,0.2648221,0.2640589,0.2633242,0.2626274,0.2620007,0.261458,0.2633396,0.2630576,0.2628733,0.2627816,0.2627762,0.2628501,0.2630035,0.263227,0.2635414,0.2640317,0.2648219,0.2660304,0.2677663,0.2701409,0.2732683,0.2771936,0.2818711,0.2872621,0.2933316,0.3000284,0.307294,0.3150514,0.3232154,0.3316932,0.3403886,0.3492081,0.3580499,0.366818,0.3754179,0.383759,0.3917734,0.3994074,0.4066257,0.4134307,0.4198611,0.4259725,0.4318302,0.4375039,0.4430444,0.4484675,0.4537569,0.458875,0.4637529,0.468308,0.4724666,0.4761587,0.4793352,0.4819702,0.4840397,0.4855355,0.486459,0.4868085,0.4865814,0.4857669,0.4843558,0.4823501,0.4797758,0.4766823,0.473149,0.4692789,0.4651874,0.4609846,0.4567581,0.4525898,0.4485563,0.4447077,0.4410741,0.4376711,0.4345049,0.4315909,0.4289423,0.4265498,0.4244,0.4224801,0.4207708,0.4192488,0.4178885,0.4166764,0.4156038,0.4146504,0.4137914,0.4130068,0.4122792,0.4115835,0.41089,0.4101706,0.4094034,0.4085757,0.4076784,0.4067177,0.4056965,0.4046294,0.4035572,0.4025288,0.4015825,0.4007462,0.4000594,0.3995526,0.3992408,0.3991371,0.3992563,0.3996244,0.4002702,0.4012061,0.402446,0.4040103,0.4059183,0.4081838,0.4108138,0.4138267,0.4172373,0.4210514,0.4252751,0.4299042,0.4349363,0.4403482,0.4460988,0.4521429,0.4584419,0.4649571,0.4716335,0.4784205,0.4852823,0.4921727,0.4990479,0.505883,0.512655,0.5193254,0.5258468,0.5321816,0.5382962,0.5441697,0.5498033,0.5551978,0.5603625,0.5653471,0.5702263,0.5751095,0.5801808,0.5856659,0.5917712,0.5986338,0.6062984,0.6147524,0.6239851,0.6339917,0.6447614,0.6562418,0.6683457,0.6809805,0.6940391,0.707399,0.7209271,0.7344689,0.7478544,0.7609102,0.7734929,0.7855047,0.7968619,0.8074759,0.817295,0.8263115,0.8345311,0.8419431,0.8485525,0.8544344,0.8596597,0.8642496,0.8682479,0.8717237,0.8747153,0.8772739,0.8794888,0.8814266,0.8830952,0.8845101,0.8857164,0.886766,0.8876902,0.8884947,0.8891857,0.8897576,0.8902031,0.8905185,0.8906968,0.8907304,0.8906206,0.8903863,0.8900461,0.8896198,0.8891162,0.8885218,0.8878337,0.8870637,0.8862235,0.8853217,0.8843648,0.8833752,0.8823683,0.8813469,0.8803165,0.8792728,0.8782099,0.8771344,0.8760616,0.8749954,0.8739311,0.8728617,0.8717989,0.870761,0.8697507,0.868781,0.8678596,0.8669752,0.8661321,0.8653477,0.8646371,0.8639973,0.8634218,0.8629014,0.8623998,0.8618962,0.8614112,0.8609616,0.8605404,0.8601411,0.8597628,0.8594062,0.8590752,0.8587711,0.8584722,0.8581505,0.8578183,0.8574766,0.8570917,0.8566579,0.8561791,0.855643,0.8550383,0.8543473,0.8535662,0.8526948,0.851717,0.850623,0.8494249,0.848134,0.8467361,0.845225,0.8436154,0.8419197,0.8401384,0.8382846,0.8363775,0.8344296,0.8324553,0.8304644,0.8284585,0.8264316,0.8243852,0.8223311,0.8202822,0.8182493,0.8162347,0.8142406,0.812263,0.8102989,0.8083646,0.8064753,0.8046355,0.8028449,0.8011188,0.799463,0.7978759,0.7963614,0.7949318,0.7936075,0.7924109,0.7913634,0.7904789,0.7897575,0.7891858,0.7887543,0.7884744,0.7883857,0.7885484,0.7890175,0.789847,0.791088,0.7927655,0.7948847,0.797448,0.8004391,0.8038036,0.8074499,0.8112409,0.8150231,0.81865,0.8219998,0.8249831,0.8275395,0.8296505,0.8313437,0.8326657,0.8336791,0.8344863,0.8352203,0.8359901,0.8368534,0.8378229,0.8388748,0.8399776,0.8410901,0.8421622,0.8431547,0.8440406,0.844803,0.8454617,0.8460748,0.8467177,0.8474482,0.848277,0.8491782,0.8501136,0.8510314,0.8518851,0.852647,0.8533113,0.8538966,0.8544202,0.8548935,0.85533,0.855738,0.8561149,0.8564644,0.8567949,0.8571065,0.8573839,0.8575995,0.8577079,0.8576686,0.8574671,0.8570918,0.8565368,0.8558087,0.8549216,0.8538951,0.8527536,0.851522,0.8502304,0.8489031,0.8475555,0.8462141,0.8449044,0.8436474,0.8424558,0.8413297,0.8402615,0.8392527,0.8383023,0.8373731,0.8364102,0.8353756,0.8342543,0.833054,0.8317972,0.8304824,0.829089,0.8276113,0.8260697,0.8245117,0.823005,0.8216271,0.8204321,0.8194583,0.818739,0.8183118,0.8182402,0.8185728,0.8193208,0.8204859,0.8220553,0.8240002,0.8263324,0.8291507,0.8326277,0.836898,0.8419892,0.8478392,0.8543459,0.8614353,0.8691068,0.8774205,0.8864409,0.8961749,0.906538,0.9173508,0.9283723,0.9393843,0.9502795,0.9610336,0.9715902,0.9818097,0.9914955,1.0004697,1.0086476,1.0160401,1.0226845,1.028622,1.0338956,1.0385251,1.0425321,1.0459321,1.0486947,1.0507977,1.0522867,1.0532247,1.0536367,1.0535638,1.0530754,1.0522295,1.0510744,1.049659,1.0480103,1.0461665,1.0441977,1.0421624,1.0400964,1.0380135,1.0359069,1.0337853,1.0316746,1.0295871,1.0275126,1.0254447,1.0234077,1.0214273,1.0194902,1.0175626,1.0156235,1.0136845,1.0117749,1.0098836,1.0079862,1.0060788,1.0041789,1.0023234,1.0005211,0.9987746,0.9971114,0.9955573,0.9941185,0.9928076,0.991657,0.9906723,0.989839,0.9891508,0.9886269,0.9882968,0.9881735,0.9882586,0.9885541,0.9890644,0.9897732,0.9906623,0.991728,0.9929665,0.9943608,0.9959067,0.9975739,0.9993193,1.0011259,1.0029621,1.0048009,1.0066284,1.0084503,1.0102487,1.0119771,1.0136318,1.0152247,1.016722,1.0180956,1.0193686,1.0205605,1.0216817,1.022729,1.0237006,1.024599,1.0254263,1.0261735,1.0268242,1.0274034,1.0279436,1.0284514,1.0289196,1.0293604,1.0297883,1.0301635,1.0304613,1.0307174,1.0309772,1.0312098,1.0313779,1.0314813,1.0315361,1.0315328,1.0314851,1.031397,1.0312327,1.0309799,1.0306605,1.0303074,1.0298985,1.0294214,1.0288811,1.0282696,1.0276119,1.0269616,1.0263584,1.0257838,1.0251956,1.0245758,1.0239162,1.0232301,1.0225313,1.0217961,1.0210372,1.0202756,1.0194948,1.0186998,1.0179311,1.0172067,1.0165527,1.0159507,1.0153697,1.0147946,1.0141965,1.0135915,1.0129842,1.0123361,1.0116214,1.0108589,1.0100737,1.0093124,1.0085692,1.0078175,1.0070845,1.006397,1.0057213,1.0050082,1.0042754,1.003548,1.0028138,1.0020703,1.0013511,1.0006628,1.000013,0.9994169,0.9988958,0.9984888,0.9982372,0.9981543,0.9982489,0.9985124,0.9989442,0.9995749,1.0004783,1.0016941,1.0032014,1.0049613,1.0069479,1.0091189,1.0114533,1.0139555,1.0165635,1.0191973,1.0218033,1.0243601,1.0268607,1.0292925,1.0316595,1.0339823,1.0362498,1.0384215,1.0405046,1.0424836,1.0443119,1.0459669,1.0475037,1.0488824,1.0500512,1.0509995,1.0517009,1.0521989,1.0525866,1.052928,1.0532672,1.0536275,1.0540999,1.0547702,1.0556669,1.0566968,1.0577686,1.0589335,1.0602053,1.0615103,1.0627033,1.0636885,1.0644157,1.0649155,1.0652772,1.0656631,1.0661565,1.0666679,1.0671831,1.0676782,1.0680741,1.0683764,1.0686023,1.0687495,1.0688648,1.0690163,1.0691968,1.069347,1.0694536,1.0695224,1.0695565,1.0694911,1.0693227,1.0690784,1.0687673,1.0684608,1.0681839,1.0679946,1.0679395,1.0679812,1.0680691,1.0681418,1.0682123,1.0683128,1.0684655,1.0686609,1.068844,1.0690303,1.0692583,1.0695124,1.0697552,1.0699893,1.0702928,1.0706882,1.0711788,1.0717847,1.0724978,1.0733393,1.074317,1.0754368,1.0766112,1.0777457,1.078933,1.0802727,1.0817448,1.0833187,1.0849395,1.0866286,1.088429,1.0903368,1.0923489,1.094407,1.0965211,1.0986469,1.1007383,1.1028609,1.1050956,1.1074511,1.1098043,1.1121353,1.114484,1.1169214,1.1194792,1.1220065,1.1244091,1.1267838,1.1291813,1.1315948,1.1339942,1.1362437,1.1383276,1.1403968,1.1424444,1.1443708,1.1461902,1.1477842,1.1491601,1.1505085,1.1518009,1.1529276,1.1538112,1.1544365,1.1548939,1.1551763,1.1552401
323,2,3,1.9443957,1.952774,1.9598947,1.965796,1.9704517,1.9739376,1.9764001,1.9780051,1.9789253,1.9792911,1.9790668,1.978151,1.9766521,1.974821,1.9727614,1.9704528,1.9680477,1.9657297,1.9634629,1.9611759,1.9589417,1.9569044,1.9550326,1.9531419,1.9511668,1.9491214,1.9470121,1.9447897,1.9423884,1.9397658,1.9369076,1.9338608,1.9306192,1.9272459,1.9238474,1.9204913,1.9172316,1.9141409,1.9111651,1.9082525,1.905345,1.9024367,1.8994853,1.8964078,1.8930655,1.889394,1.8853586,1.8809577,1.8761863,1.8710916,1.8656834,1.8600169,1.8541566,1.8482085,1.8422518,1.8363172,1.8304359,1.8246259,1.8189506,1.8134252,1.8080332,1.8027542,1.7975689,1.7924415,1.787324,1.7821742,1.7769905,1.771803,1.7666381,1.7614847,1.7563177,1.7511029,1.7458197,1.7404633,1.7350289,1.7294978,1.7238562,1.7180973,1.7122349,1.7063119,1.7003876,1.6945057,1.6886999,1.6829896,1.67737,1.6718174,1.6663275,1.660902,1.6555318,1.6501922,1.6448834,1.6396117,1.6343651,1.6291716,1.624045,1.6189777,1.6139909,1.6090854,1.6042432,1.5994712,1.5947762,1.590128,1.585505,1.5808952,1.5763148,1.5717946,1.5673712,1.563083,1.5589492,1.5549736,1.5511549,1.5474719,1.5438926,1.5403786,1.5368767,1.5333512,1.5297527,1.5260193,1.522112,1.5180162,1.5137264,1.509265,1.5046734,1.5000075,1.49533,1.4907177,1.4862216,1.4818411,1.4775413,1.4732927,1.4690908,1.4649419,1.4608696,1.4568864,1.4529976,1.4492098,1.4455296,1.4419726,1.4385334,1.4352062,1.4319755,1.4288306,1.4257673,1.4227768,1.4198508,1.4169846,1.4141732,1.4114099,1.4086934,1.4060182,1.4033799,1.4007753,1.3982013,1.3956603,1.3931491,1.3906655,1.3882084,1.3857767,1.3833779,1.3810091,1.3786716,1.3763667,1.3740956,1.3718649,1.3696734,1.3675168,1.3653915,1.3632978,1.3612346,1.3592044,1.3572084,1.3552387,1.3532933,1.351375,1.3494813,1.3476034,1.3457293,1.3438543,1.3419744,1.3400875,1.3381841,1.3362618,1.3343299,1.3323925,1.3304527,1.328513,1.3265764,1.3246512,1.3227478,1.3208768,1.3190369,1.3172189,1.315423,1.3136592,1.3119329,1.3102432,1.3085782,1.3069237,1.3052705,1.303621,1.3019785,1.3003369,1.2986944,1.2970572,1.2954368,1.2938384,1.2922682,1.2907462,1.2892837,1.2878656,1.2864809,1.285131,1.2838155,1.2825299,1.2812771,1.2800604,1.2788752,1.2777157,1.2765669,1.2754267,1.2742915,1.2731592,1.2720318,1.2709135,1.2698053,1.2687099,1.2676368,1.2665902,1.2655779,1.2646086,1.2636848,1.2628098,1.261984,1.2612227,1.2605276,1.2599089,1.2593673,1.2588932,1.258491,1.2581727,1.2579456,1.2578205,1.2578016,1.2578929,1.2580976,1.2584143,1.25884,1.2593634,1.259973,1.2606578,1.2614069,1.2622048,1.2630299,1.2638498,1.2646265,1.2653214,1.2658973,1.2663212,1.2665738,1.2666453,1.2665393,1.2662684,1.2658551,1.2653259,1.264708,1.2640325,1.2633318,1.2626396,1.2619888,1.2614166,1.2609663,1.2606823,1.2606049,1.2607727,1.2612256,1.2619996,1.2631217,1.2646042,1.2664435,1.2686116,1.2710728,1.2737852,1.2767052,1.2797964,1.2830228,1.2863484,1.2897285,1.2931091,1.2964212,1.2995887,1.3025449,1.305226,1.3075877,1.3096041,1.3112687,1.3125923,1.3135985,1.314311,1.314764,1.3149874,1.3150096,1.3148597,1.3145617,1.3141376,1.3136027,1.3129698,1.3122447,1.3114308,1.3105271,1.3095333,1.3084475,1.3072782,1.306035,1.3047292,1.3033717,1.3019729,1.300546,1.2991017,1.297647,1.2961931,1.2947481,1.2933209,1.2919126,1.2905253,1.289159,1.287807,1.2864634,1.2851198,1.2837697,1.2824069,1.2810306,1.2796467,1.2782637,1.2768924,1.2755442,1.2742288,1.2729551,1.271729,1.2705592,1.2694508,1.2684041,1.2674201,1.266492,1.2656281,1.2648221,1.2640589,1.2633242,1.2626274,1.2620007,1.261458,1.2633396,1.2630576,1.2628733,1.2627816,1.2627762,1.2628501,1.2630035,1.263227,1.2635414,1.2640317,1.2648219,1.2660304,1.2677663,1.2701409,1.2732683,1.2771936,1.2818711,1.2872621,1.2933316,1.3000284,1.307294,1.3150514,1.3232154,1.3316932,1.3403886,1.3492081,1.3580499,1.366818,1.3754179,1.383759,1.3917734,1.3994074,1.4066257,1.4134307,1.4198611,1.4259725,1.4318302,1.4375039,1.4430444,1.4484675,1.4537569,1.458875,1.4637529,1.468308,1.4724666,1.4761587,1.4793352,1.4819702,1.4840397,1.4855355,1.486459,1.4868085,1.4865814,1.4857669,1.4843558,1.4823501,1.4797758,1.4766823,1.473149,1.4692789,1.4651874,1.4609846,1.4567581,1.4525898,1.4485563,1.4447077,1.4410741,1.4376711,1.4345049,1.4315909,1.4289423,1.4265498,1.4244,1.4224801,1.4207708,1.4192488,1.4178885,1.4166764,1.4156038,1.4146504,1.4137914,1.4130068,1.4122792,1.4115835,1.41089,1.4101706,1.4094034,1.4085757,1.4076784,1.4067177,1.4056965,1.4046294,1.4035572,1.4025288,1.4015825,1.4007462,1.4000594,1.3995526,1.3992408,1.3991371,1.3992563,1.3996244,1.4002702,1.4012061,1.402446,1.4040103,1.4059183,1.4081838,1.4108138,1.4138267,1.4172373,1.4210514,1.4252751,1.4299042,1.4349363,1.4403482,1.4460988,1.4521429,1.4584419,1.4649571,1.4716335,1.4784205,1.4852823,1.4921727,1.4990479,1.505883,1.512655,1.5193254,1.5258468,1.5321816,1.5382962,1.5441697,1.5498033,1.5551978,1.5603625,1.5653471,1.5702263,1.5751095,1.5801808,1.5856659,1.5917712,1.5986338,1.6062984,1.6147524,1.6239851,1.6339917,1.6447614,1.6562418,1.6683457,1.6809805,1.6940391,1.707399,1.7209271,1.7344689,1.7478544,1.7609102,1.7734929,1.7855047,1.7968619,1.8074759,1.817295,1.8263115,1.8345311,1.8419431,1.8485525,1.8544344,1.8596597,1.8642496,1.8682479,1.8717237,1.8747153,1.8772739,1.8794888,1.8814266,1.8830952,1.8845101,1.8857164,1.886766,1.8876902,1.8884947,1.8891857,1.8897576,1.8902031,1.8905185,1.8906968,1.8907304,1.8906206,1.8903863,1.8900461,1.8896198,1.8891162,1.8885218,1.8878337,1.8870637,1.8862235,1.8853217,1.8843648,1.8833752,1.8823683,1.8813469,1.8803165,1.8792728,1.8782099,1.8771344,1.8760616,1.8749954,1.8739311,1.8728617,1.8717989,1.870761,1.8697507,1.868781,1.8678596,1.8669752,1.8661321,1.8653477,1.8646371,1.8639973,1.8634218,1.8629014,1.8623998,1.8618962,1.8614112,1.8609616,1.8605404,1.8601411,1.8597628,1.8594062,1.8590752,1.8587711,1.8584722,1.8581505,1.8578183,1.8574766,1.8570917,1.8566579,1.8561791,1.855643,1.8550383,1.8543473,1.8535662,1.8526948,1.851717,1.850623,1.8494249,1.848134,1.8467361,1.845225,1.8436154,1.8419197,1.8401384,1.8382846,1.8363775,1.8344296,1.8324553,1.8304644,1.8284585,1.8264316,1.8243852,1.8223311,1.8202822,1.8182493,1.8162347,1.8142406,1.812263,1.8102989,1.8083646,1.8064753,1.8046355,1.8028449,1.8011188,1.799463,1.7978759,1.7963614,1.7949318,1.7936075,1.7924109,1.7913634,1.7904789,1.7897575,1.7891858,1.7887543,1.7884744,1.7883857,1.7885484,1.7890175,1.789847,1.791088,1.7927655,1.7948847,1.797448,1.8004391,1.8038036,1.8074499,1.8112409,1.8150231,1.81865,1.8219998,1.8249831,1.8275395,1.8296505,1.8313437,1.8326657,1.8336791,1.8344863,1.8352203,1.8359901,1.8368534,1.8378229,1.8388748,1.8399776,1.8410901,1.8421622,1.8431547,1.8440406,1.844803,1.8454617,1.8460748,1.8467177,1.8474482,1.848277,1.8491782,1.8501136,1.8510314,1.8518851,1.852647,1.8533113,1.8538966,1.8544202,1.8548935,1.85533,1.855738,1.8561149,1.8564644,1.8567949,1.8571065,1.8573839,1.8575995,1.8577079,1.8576686,1.8574671,1.8570918,1.8565368,1.8558087,1.8549216,1.8538951,1.8527536,1.851522,1.8502304,1.8489031,1.8475555,1.8462141,1.8449044,1.8436474,1.8424558,1.8413297,1.8402615,1.8392527,1.8383023,1.8373731,1.8364102,1.8353756,1.8342543,1.833054,1.8317972,1.8304824,1.829089,1.8276113,1.8260697,1.8245117,1.823005,1.8216271,1.8204321,1.8194583,1.818739,1.8183118,1.8182402,1.8185728,1.8193208,1.8204859,1.8220553,1.8240002,1.8263324,1.8291507,1.8326277,1.836898,1.8419892,1.8478392,1.8543459,1.8614353,1.8691068,1.8774205,1.8864409,1.8961749,1.906538,1.9173508,1.9283723,1.9393843,1.9502795,1.9610336,1.9715902,1.9818097,1.9914955,2.0004697,2.0086476,2.0160401,2.0226845,2.028622,2.0338956,2.0385251,2.0425321,2.0459321,2.0486947,2.0507977,2.0522867,2.0532247,2.0536367,2.0535638,2.0530754,2.0522295,2.0510744,2.049659,2.0480103,2.0461665,2.0441977,2.0421624,2.0400964,2.0380135,2.0359069,2.0337853,2.0316746,2.0295871,2.0275126,2.0254447,2.0234077,2.0214273,2.0194902,2.0175626,2.0156235,2.0136845,2.0117749,2.0098836,2.0079862,2.0060788,2.0041789,2.0023234,2.0005211,1.9987746,1.9971114,1.9955573,1.9941185,1.9928076,1.991657,1.9906723,1.989839,1.9891508,1.9886269,1.9882968,1.9881735,1.9882586,1.9885541,1.9890644,1.9897732,1.9906623,1.991728,1.9929665,1.9943608,1.9959067,1.9975739,1.9993193,2.0011259,2.0029621,2.0048009,2.0066284,2.0084503,2.0102487,2.0119771,2.0136318,2.0152247,2.016722,2.0180956,2.0193686,2.0205605,2.0216817,2.022729,2.0237006,2.024599,2.0254263,2.0261735,2.0268242,2.0274034,2.0279436,2.0284514,2.0289196,2.0293604,2.0297883,2.0301635,2.0304613,2.0307174,2.0309772,2.0312098,2.0313779,2.0314813,2.0315361,2.0315328,2.0314851,2.031397,2.0312327,2.0309799,2.0306605,2.0303074,2.0298985,2.0294214,2.0288811,2.0282696,2.0276119,2.0269616,2.0263584,2.0257838,2.0251956,2.0245758,2.0239162,2.0232301,2.0225313,2.0217961,2.0210372,2.0202756,2.0194948,2.0186998,2.0179311,2.0172067,2.0165527,2.0159507,2.0153697,2.0147946,2.0141965,2.0135915,2.0129842,2.0123361,2.0116214,2.0108589,2.0100737,2.0093124,2.0085692,2.0078175,2.0070845,2.006397,2.0057213,2.0050082,2.0042754,2.003548,2.0028138,2.0020703,2.0013511,2.0006628,2.000013,1.9994169,1.9988958,1.9984888,1.9982372,1.9981543,1.9982489,1.9985124,1.9989442,1.9995749,2.0004783,2.0016941,2.0032014,2.0049613,2.0069479,2.0091189,2.0114533,2.0139555,2.0165635,2.0191973,2.0218033,2.0243601,2.0268607,2.0292925,2.0316595,2.0339823,2.0362498,2.0384215,2.0405046,2.0424836,2.0443119,2.0459669,2.0475037,2.0488824,2.0500512,2.0509995,2.0517009,2.0521989,2.0525866,2.052928,2.0532672,2.0536275,2.0540999,2.0547702,2.0556669,2.0566968,2.0577686,2.0589335,2.0602053,2.0615103,2.0627033,2.0636885,2.0644157,2.0649155,2.0652772,2.0656631,2.0661565,2.0666679,2.0671831,2.0676782,2.0680741,2.0683764,2.0686023,2.0687495,2.0688648,2.0690163,2.0691968,2.069347,2.0694536,2.0695224,2.0695565,2.0694911,2.0693227,2.0690784,2.0687673,2.0684608,2.0681839,2.0679946,2.0679395,2.0679812,2.0680691,2.0681418,2.0682123,2.0683128,2.0684655,2.0686609,2.068844,2.0690303,2.0692583,2.0695124,2.0697552,2.0699893,2.0702928,2.0706882,2.0711788,2.0717847,2.0724978,2.0733393,2.074317,2.0754368,2.0766112,2.0777457,2.078933,2.0802727,2.0817448,2.0833187,2.0849395,2.0866286,2.088429,2.0903368,2.0923489,2.094407,2.0965211,2.0986469,2.1007383,2.1028609,2.1050956,2.1074511,2.1098043,2.1121353,2.114484,2.1169214,2.1194792,2.1220065,2.1244091,2.1267838,2.1291813,2.1315948,2.1339942,2.1362437,2.1383276,2.1403968,2.1424444,2.1443708,2.1461902,2.1477842,2.1491601,2.1505085,2.1518009,2.1529276,2.1538112,2.1544365,2.1548939,2.1551763,2.1552401
324,3,4,2.9443957,2.952774,2.9598947,2.965796,2.9704517,2.9739376,2.9764001,2.9780051,2.9789253,2.9792911,2.9790668,2.978151,2.9766521,2.974821,2.9727614,2.9704528,2.9680477,2.9657297,2.9634629,2.9611759,2.9589417,2.9569044,2.9550326,2.9531419,2.9511668,2.9491214,2.9470121,2.9447897,2.9423884,2.9397658,2.9369076,2.9338608,2.9306192,2.9272459,2.9238474,2.9204913,2.9172316,2.9141409,2.9111651,2.9082525,2.905345,2.9024367,2.8994853,2.8964078,2.8930655,2.889394,2.8853586,2.8809577,2.8761863,2.8710916,2.8656834,2.8600169,2.8541566,2.8482085,2.8422518,2.8363172,2.8304359,2.8246259,2.8189506,2.8134252,2.8080332,2.8027542,2.7975689,2.7924415,2.787324,2.7821742,2.7769905,2.771803,2.7666381,2.7614847,2.7563177,2.7511029,2.7458197,2.7404633,2.7350289,2.7294978,2.7238562,2.7180973,2.7122349,2.7063119,2.7003876,2.6945057,2.6886999,2.6829896,2.67737,2.6718174,2.6663275,2.660902,2.6555318,2.6501922,2.6448834,2.6396117,2.6343651,2.6291716,2.624045,2.6189777,2.6139909,2.6090854,2.6042432,2.5994712,2.5947762,2.590128,2.585505,2.5808952,2.5763148,2.5717946,2.5673712,2.563083,2.5589492,2.5549736,2.5511549,2.5474719,2.5438926,2.5403786,2.5368767,2.5333512,2.5297527,2.5260193,2.522112,2.5180162,2.5137264,2.509265,2.5046734,2.5000075,2.49533,2.4907177,2.4862216,2.4818411,2.4775413,2.4732927,2.4690908,2.4649419,2.4608696,2.4568864,2.4529976,2.4492098,2.4455296,2.4419726,2.4385334,2.4352062,2.4319755,2.4288306,2.4257673,2.4227768,2.4198508,2.4169846,2.4141732,2.4114099,2.4086934,2.4060182,2.4033799,2.4007753,2.3982013,2.3956603,2.3931491,2.3906655,2.3882084,2.3857767,2.3833779,2.3810091,2.3786716,2.3763667,2.3740956,2.3718649,2.3696734,2.3675168,2.3653915,2.3632978,2.3612346,2.3592044,2.3572084,2.3552387,2.3532933,2.351375,2.3494813,2.3476034,2.3457293,2.3438543,2.3419744,2.3400875,2.3381841,2.3362618,2.3343299,2.3323925,2.3304527,2.328513,2.3265764,2.3246512,2.3227478,2.3208768,2.3190369,2.3172189,2.315423,2.3136592,2.3119329,2.3102432,2.3085782,2.3069237,2.3052705,2.303621,2.3019785,2.3003369,2.2986944,2.2970572,2.2954368,2.2938384,2.2922682,2.2907462,2.2892837,2.2878656,2.2864809,2.285131,2.2838155,2.2825299,2.2812771,2.2800604,2.2788752,2.2777157,2.2765669,2.2754267,2.2742915,2.2731592,2.2720318,2.2709135,2.2698053,2.2687099,2.2676368,2.2665902,2.2655779,2.2646086,2.2636848,2.2628098,2.261984,2.2612227,2.2605276,2.2599089,2.2593673,2.2588932,2.258491,2.2581727,2.2579456,2.2578205,2.2578016,2.2578929,2.2580976,2.2584143,2.25884,2.2593634,2.259973,2.2606578,2.2614069,2.2622048,2.2630299,2.2638498,2.2646265,2.2653214,2.2658973,2.2663212,2.2665738,2.2666453,2.2665393,2.2662684,2.2658551,2.2653259,2.264708,2.2640325,2.2633318,2.2626396,2.2619888,2.2614166,2.2609663,2.2606823,2.2606049,2.2607727,2.2612256,2.2619996,2.2631217,2.2646042,2.2664435,2.2686116,2.2710728,2.2737852,2.2767052,2.2797964,2.2830228,2.2863484,2.2897285,2.2931091,2.2964212,2.2995887,2.3025449,2.305226,2.3075877,2.3096041,2.3112687,2.3125923,2.3135985,2.314311,2.314764,2.3149874,2.3150096,2.3148597,2.3145617,2.3141376,2.3136027,2.3129698,2.3122447,2.3114308,2.3105271,2.3095333,2.3084475,2.3072782,2.306035,2.3047292,2.3033717,2.3019729,2.300546,2.2991017,2.297647,2.2961931,2.2947481,2.2933209,2.2919126,2.2905253,2.289159,2.287807,2.2864634,2.2851198,2.2837697,2.2824069,2.2810306,2.2796467,2.2782637,2.2768924,2.2755442,2.2742288,2.2729551,2.271729,2.2705592,2.2694508,2.2684041,2.2674201,2.266492,2.2656281,2.2648221,2.2640589,2.2633242,2.2626274,2.2620007,2.261458,2.2633396,2.2630576,2.2628733,2.2627816,2.2627762,2.2628501,2.2630035,2.263227,2.2635414,2.2640317,2.2648219,2.2660304,2.2677663,2.2701409,2.2732683,2.2771936,2.2818711,2.2872621,2.2933316,2.3000284,2.307294,2.3150514,2.3232154,2.3316932,2.3403886,2.3492081,2.3580499,2.366818,2.3754179,2.383759,2.3917734,2.3994074,2.4066257,2.4134307,2.4198611,2.4259725,2.4318302,2.4375039,2.4430444,2.4484675,2.4537569,2.458875,2.4637529,2.468308,2.4724666,2.4761587,2.4793352,2.4819702,2.4840397,2.4855355,2.486459,2.4868085,2.4865814,2.4857669,2.4843558,2.4823501,2.4797758,2.4766823,2.473149,2.4692789,2.4651874,2.4609846,2.4567581,2.4525898,2.4485563,2.4447077,2.4410741,2.4376711,2.4345049,2.4315909,2.4289423,2.4265498,2.4244,2.4224801,2.4207708,2.4192488,2.4178885,2.4166764,2.4156038,2.4146504,2.4137914,2.4130068,2.4122792,2.4115835,2.41089,2.4101706,2.4094034,2.4085757,2.4076784,2.4067177,2.4056965,2.4046294,2.4035572,2.4025288,2.4015825,2.4007462,2.4000594,2.3995526,2.3992408,2.3991371,2.3992563,2.3996244,2.4002702,2.4012061,2.402446,2.4040103,2.4059183,2.4081838,2.4108138,2.4138267,2.4172373,2.4210514,2.4252751,2.4299042,2.4349363,2.4403482,2.4460988,2.4521429,2.4584419,2.4649571,2.4716335,2.4784205,2.4852823,2.4921727,2.4990479,2.505883,2.512655,2.5193254,2.5258468,2.5321816,2.5382962,2.5441697,2.5498033,2.5551978,2.5603625,2.5653471,2.5702263,2.5751095,2.5801808,2.5856659,2.5917712,2.5986338,2.6062984,2.6147524,2.6239851,2.6339917,2.6447614,2.6562418,2.6683457,2.6809805,2.6940391,2.707399,2.7209271,2.7344689,2.7478544,2.7609102,2.7734929,2.7855047,2.7968619,2.8074759,2.817295,2.8263115,2.8345311,2.8419431,2.8485525,2.8544344,2.8596597,2.8642496,2.8682479,2.8717237,2.8747153,2.8772739,2.8794888,2.8814266,2.8830952,2.8845101,2.8857164,2.886766,2.8876902,2.8884947,2.8891857,2.8897576,2.8902031,2.8905185,2.8906968,2.8907304,2.8906206,2.8903863,2.8900461,2.8896198,2.8891162,2.8885218,2.8878337,2.8870637,2.8862235,2.8853217,2.8843648,2.8833752,2.8823683,2.8813469,2.8803165,2.8792728,2.8782099,2.8771344,2.8760616,2.8749954,2.8739311,2.8728617,2.8717989,2.870761,2.8697507,2.868781,2.8678596,2.8669752,2.8661321,2.8653477,2.8646371,2.8639973,2.8634218,2.8629014,2.8623998,2.8618962,2.8614112,2.8609616,2.8605404,2.8601411,2.8597628,2.8594062,2.8590752,2.8587711,2.8584722,2.8581505,2.8578183,2.8574766,2.8570917,2.8566579,2.8561791,2.855643,2.8550383,2.8543473,2.8535662,2.8526948,2.851717,2.850623,2.8494249,2.848134,2.8467361,2.845225,2.8436154,2.8419197,2.8401384,2.8382846,2.8363775,2.8344296,2.8324553,2.8304644,2.8284585,2.8264316,2.8243852,2.8223311,2.8202822,2.8182493,2.8162347,2.8142406,2.812263,2.8102989,2.8083646,2.8064753,2.8046355,2.8028449,2.8011188,2.799463,2.7978759,2.7963614,2.7949318,2.7936075,2.7924109,2.7913634,2.7904789,2.7897575,2.7891858,2.7887543,2.7884744,2.7883857,2.7885484,2.7890175,2.789847,2.791088,2.7927655,2.7948847,2.797448,2.8004391,2.8038036,2.8074499,2.8112409,2.8150231,2.81865,2.8219998,2.8249831,2.8275395,2.8296505,2.8313437,2.8326657,2.8336791,2.8344863,2.8352203,2.8359901,2.8368534,2.8378229,2.8388748,2.8399776,2.8410901,2.8421622,2.8431547,2.8440406,2.844803,2.8454617,2.8460748,2.8467177,2.8474482,2.848277,2.8491782,2.8501136,2.8510314,2.8518851,2.852647,2.8533113,2.8538966,2.8544202,2.8548935,2.85533,2.855738,2.8561149,2.8564644,2.8567949,2.8571065,2.8573839,2.8575995,2.8577079,2.8576686,2.8574671,2.8570918,2.8565368,2.8558087,2.8549216,2.8538951,2.8527536,2.851522,2.8502304,2.8489031,2.8475555,2.8462141,2.8449044,2.8436474,2.8424558,2.8413297,2.8402615,2.8392527,2.8383023,2.8373731,2.8364102,2.8353756,2.8342543,2.833054,2.8317972,2.8304824,2.829089,2.8276113,2.8260697,2.8245117,2.823005,2.8216271,2.8204321,2.8194583,2.818739,2.8183118,2.8182402,2.8185728,2.8193208,2.8204859,2.8220553,2.8240002,2.8263324,2.8291507,2.8326277,2.836898,2.8419892,2.8478392,2.8543459,2.8614353,2.8691068,2.8774205,2.8864409,2.8961749,2.906538,2.9173508,2.9283723,2.9393843,2.9502795,2.9610336,2.9715902,2.9818097,2.9914955,3.0004697,3.0086476,3.0160401,3.0226845,3.028622,3.0338956,3.0385251,3.0425321,3.0459321,3.0486947,3.0507977,3.0522867,3.0532247,3.0536367,3.0535638,3.0530754,3.0522295,3.0510744,3.049659,3.0480103,3.0461665,3.0441977,3.0421624,3.0400964,3.0380135,3.0359069,3.0337853,3.0316746,3.0295871,3.0275126,3.0254447,3.0234077,3.0214273,3.0194902,3.0175626,3.0156235,3.0136845,3.0117749,3.0098836,3.0079862,3.0060788,3.0041789,3.0023234,3.0005211,2.9987746,2.9971114,2.9955573,2.9941185,2.9928076,2.991657,2.9906723,2.989839,2.9891508,2.9886269,2.9882968,2.9881735,2.9882586,2.9885541,2.9890644,2.9897732,2.9906623,2.991728,2.9929665,2.9943608,2.9959067,2.9975739,2.9993193,3.0011259,3.0029621,3.0048009,3.0066284,3.0084503,3.0102487,3.0119771,3.0136318,3.0152247,3.016722,3.0180956,3.0193686,3.0205605,3.0216817,3.022729,3.0237006,3.024599,3.0254263,3.0261735,3.0268242,3.0274034,3.0279436,3.0284514,3.0289196,3.0293604,3.0297883,3.0301635,3.0304613,3.0307174,3.0309772,3.0312098,3.0313779,3.0314813,3.0315361,3.0315328,3.0314851,3.031397,3.0312327,3.0309799,3.0306605,3.0303074,3.0298985,3.0294214,3.0288811,3.0282696,3.0276119,3.0269616,3.0263584,3.0257838,3.0251956,3.0245758,3.0239162,3.0232301,3.0225313,3.0217961,3.0210372,3.0202756,3.0194948,3.0186998,3.0179311,3.0172067,3.0165527,3.0159507,3.0153697,3.0147946,3.0141965,3.0135915,3.0129842,3.0123361,3.0116214,3.0108589,3.0100737,3.0093124,3.0085692,3.0078175,3.0070845,3.006397,3.0057213,3.0050082,3.0042754,3.003548,3.0028138,3.0020703,3.0013511,3.0006628,3.000013,2.9994169,2.9988958,2.9984888,2.9982372,2.9981543,2.9982489,2.9985124,2.9989442,2.9995749,3.0004783,3.0016941,3.0032014,3.0049613,3.0069479,3.0091189,3.0114533,3.0139555,3.0165635,3.0191973,3.0218033,3.0243601,3.0268607,3.0292925,3.0316595,3.0339823,3.0362498,3.0384215,3.0405046,3.0424836,3.0443119,3.0459669,3.0475037,3.0488824,3.0500512,3.0509995,3.0517009,3.0521989,3.0525866,3.052928,3.0532672,3.0536275,3.0540999,3.0547702,3.0556669,3.0566968,3.0577686,3.0589335,3.0602053,3.0615103,3.0627033,3.0636885,3.0644157,3.0649155,3.0652772,3.0656631,3.0661565,3.0666679,3.0671831,3.0676782,3.0680741,3.0683764,3.0686023,3.0687495,3.0688648,3.0690163,3.0691968,3.069347,3.0694536,3.0695224,3.0695565,3.0694911,3.0693227,3.0690784,3.0687673,3.0684608,3.0681839,3.0679946,3.0679395,3.0679812,3.0680691,3.0681418,3.0682123,3.0683128,3.0684655,3.0686609,3.068844,3.0690303,3.0692583,3.0695124,3.0697552,3.0699893,3.0702928,3.0706882,3.0711788,3.0717847,3.0724978,3.0733393,3.074317,3.0754368,3.0766112,3.0777457,3.078933,3.0802727,3.0817448,3.0833187,3.0849395,3.0866286,3.088429,3.0903368,3.0923489,3.094407,3.0965211,3.0986469,3.1007383,3.1028609,3.1050956,3.1074511,3.1098043,3.1121353,3.114484,3.1169214,3.1194792,3.1220065,3.1244091,3.1267838,3.1291813,3.1315948,3.1339942,3.1362437,3.1383276,3.1403968,3.1424444,3.1443708,3.1461902,3.1477842,3.1491601,3.1505085,3.1518009,3.1529276,3.1538112,3.1544365,3.1548939,3.1551763,3.1552401
325,4,5,3.9443957,3.952774,3.9598947,3.965796,3.9704517,3.9739376,3.9764001,3.9780051,3.9789253,3.9792911,3.9790668,3.978151,3.9766521,3.974821,3.9727614,3.9704528,3.9680477,3.9657297,3.9634629,3.9611759,3.9589417,3.9569044,3.9550326,3.9531419,3.9511668,3.9491214,3.9470121,3.9447897,3.9423884,3.9397658,3.9369076,3.9338608,3.9306192,3.9272459,3.9238474,3.9204913,3.9172316,3.9141409,3.9111651,3.9082525,3.905345,3.9024367,3.8994853,3.8964078,3.8930655,3.889394,3.8853586,3.8809577,3.8761863,3.8710916,3.8656834,3.8600169,3.8541566,3.8482085,3.8422518,3.8363172,3.8304359,3.8246259,3.8189506,3.8134252,3.8080332,3.8027542,3.7975689,3.7924415,3.787324,3.7821742,3.7769905,3.771803,3.7666381,3.7614847,3.7563177,3.7511029,3.7458197,3.7404633,3.7350289,3.7294978,3.7238562,3.7180973,3.7122349,3.7063119,3.7003876,3.6945057,3.6886999,3.6829896,3.67737,3.6718174,3.6663275,3.660902,3.6555318,3.6501922,3.6448834,3.6396117,3.6343651,3.6291716,3.624045,3.6189777,3.6139909,3.6090854,3.6042432,3.5994712,3.5947762,3.590128,3.585505,3.5808952,3.5763148,3.5717946,3.5673712,3.563083,3.5589492,3.5549736,3.5511549,3.5474719,3.5438926,3.5403786,3.5368767,3.5333512,3.5297527,3.5260193,3.522112,3.5180162,3.5137264,3.509265,3.5046734,3.5000075,3.49533,3.4907177,3.4862216,3.4818411,3.4775413,3.4732927,3.4690908,3.4649419,3.4608696,3.4568864,3.4529976,3.4492098,3.4455296,3.4419726,3.4385334,3.4352062,3.4319755,3.4288306,3.4257673,3.4227768,3.4198508,3.4169846,3.4141732,3.4114099,3.4086934,3.4060182,3.4033799,3.4007753,3.3982013,3.3956603,3.3931491,3.3906655,3.3882084,3.3857767,3.3833779,3.3810091,3.3786716,3.3763667,3.3740956,3.3718649,3.3696734,3.3675168,3.3653915,3.3632978,3.3612346,3.3592044,3.3572084,3.3552387,3.3532933,3.351375,3.3494813,3.3476034,3.3457293,3.3438543,3.3419744,3.3400875,3.3381841,3.3362618,3.3343299,3.3323925,3.3304527,3.328513,3.3265764,3.3246512,3.3227478,3.3208768,3.3190369,3.3172189,3.315423,3.3136592,3.3119329,3.3102432,3.3085782,3.3069237,3.3052705,3.303621,3.3019785,3.3003369,3.2986944,3.2970572,3.2954368,3.2938384,3.2922682,3.2907462,3.2892837,3.2878656,3.2864809,3.285131,3.2838155,3.2825299,3.2812771,3.2800604,3.2788752,3.2777157,3.2765669,3.2754267,3.2742915,3.2731592,3.2720318,3.2709135,3.2698053,3.2687099,3.2676368,3.2665902,3.2655779,3.2646086,3.2636848,3.2628098,3.261984,3.2612227,3.2605276,3.2599089,3.2593673,3.2588932,3.258491,3.2581727,3.2579456,3.2578205,3.2578016,3.2578929,3.2580976,3.2584143,3.25884,3.2593634,3.259973,3.2606578,3.2614069,3.2622048,3.2630299,3.2638498,3.2646265,3.2653214,3.2658973,3.2663212,3.2665738,3.2666453,3.2665393,3.2662684,3.2658551,3.2653259,3.264708,3.2640325,3.2633318,3.2626396,3.2619888,3.2614166,3.2609663,3.2606823,3.2606049,3.2607727,3.2612256,3.2619996,3.2631217,3.2646042,3.2664435,3.2686116,3.2710728,3.2737852,3.2767052,3.2797964,3.2830228,3.2863484,3.2897285,3.2931091,3.2964212,3.2995887,3.3025449,3.305226,3.3075877,3.3096041,3.3112687,3.3125923,3.3135985,3.314311,3.314764,3.3149874,3.3150096,3.3148597,3.3145617,3.3141376,3.3136027,3.3129698,3.3122447,3.3114308,3.3105271,3.3095333,3.3084475,3.3072782,3.306035,3.3047292,3.3033717,3.3019729,3.300546,3.2991017,3.297647,3.2961931,3.2947481,3.2933209,3.2919126,3.2905253,3.289159,3.287807,3.2864634,3.2851198,3.2837697,3.2824069,3.2810306,3.2796467,3.2782637,3.2768924,3.2755442,3.2742288,3.2729551,3.271729,3.2705592,3.2694508,3.2684041,3.2674201,3.266492,3.2656281,3.2648221,3.2640589,3.2633242,3.2626274,3.2620007,3.261458,3.2633396,3.2630576,3.2628733,3.2627816,3.2627762,3.2628501,3.2630035,3.263227,3.2635414,3.2640317,3.2648219,3.2660304,3.2677663,3.2701409,3.2732683,3.2771936,3.2818711,3.2872621,3.2933316,3.3000284,3.307294,3.3150514,3.3232154,3.3316932,3.3403886,3.3492081,3.3580499,3.366818,3.3754179,3.383759,3.3917734,3.3994074,3.4066257,3.4134307,3.4198611,3.4259725,3.4318302,3.4375039,3.4430444,3.4484675,3.4537569,3.458875,3.4637529,3.468308,3.4724666,3.4761587,3.4793352,3.4819702,3.4840397,3.4855355,3.486459,3.4868085,3.4865814,3.4857669,3.4843558,3.4823501,3.4797758,3.4766823,3.473149,3.4692789,3.4651874,3.4609846,3.4567581,3.4525898,3.4485563,3.4447077,3.4410741,3.4376711,3.4345049,3.4315909,3.4289423,3.4265498,3.4244,3.4224801,3.4207708,3.4192488,3.4178885,3.4166764,3.4156038,3.4146504,3.4137914,3.4130068,3.4122792,3.4115835,3.41089,3.4101706,3.4094034,3.4085757,3.4076784,3.4067177,3.4056965,3.4046294,3.4035572,3.4025288,3.4015825,3.4007462,3.4000594,3.3995526,3.3992408,3.3991371,3.3992563,3.3996244,3.4002702,3.4012061,3.402446,3.4040103,3.4059183,3.4081838,3.4108138,3.4138267,3.4172373,3.4210514,3.4252751,3.4299042,3.4349363,3.4403482,3.4460988,3.4521429,3.4584419,3.4649571,3.4716335,3.4784205,3.4852823,3.4921727,3.4990479,3.505883,3.512655,3.5193254,3.5258468,3.5321816,3.5382962,3.5441697,3.5498033,3.5551978,3.5603625,3.5653471,3.5702263,3.5751095,3.5801808,3.5856659,3.5917712,3.5986338,3.6062984,3.6147524,3.6239851,3.6339917,3.6447614,3.6562418,3.6683457,3.6809805,3.6940391,3.707399,3.7209271,3.7344689,3.7478544,3.7609102,3.7734929,3.7855047,3.7968619,3.8074759,3.817295,3.8263115,3.8345311,3.8419431,3.8485525,3.8544344,3.8596597,3.8642496,3.8682479,3.8717237,3.8747153,3.8772739,3.8794888,3.8814266,3.8830952,3.8845101,3.8857164,3.886766,3.8876902,3.8884947,3.8891857,3.8897576,3.8902031,3.8905185,3.8906968,3.8907304,3.8906206,3.8903863,3.8900461,3.8896198,3.8891162,3.8885218,3.8878337,3.8870637,3.8862235,3.8853217,3.8843648,3.8833752,3.8823683,3.8813469,3.8803165,3.8792728,3.8782099,3.8771344,3.8760616,3.8749954,3.8739311,3.8728617,3.8717989,3.870761,3.8697507,3.868781,3.8678596,3.8669752,3.8661321,3.8653477,3.8646371,3.8639973,3.8634218,3.8629014,3.8623998,3.8618962,3.8614112,3.8609616,3.8605404,3.8601411,3.8597628,3.8594062,3.8590752,3.8587711,3.8584722,3.8581505,3.8578183,3.8574766,3.8570917,3.8566579,3.8561791,3.855643,3.8550383,3.8543473,3.8535662,3.8526948,3.851717,3.850623,3.8494249,3.848134,3.8467361,3.845225,3.8436154,3.8419197,3.8401384,3.8382846,3.8363775,3.8344296,3.8324553,3.8304644,3.8284585,3.8264316,3.8243852,3.8223311,3.8202822,3.8182493,3.8162347,3.8142406,3.812263,3.8102989,3.8083646,3.8064753,3.8046355,3.8028449,3.8011188,3.799463,3.7978759,3.7963614,3.7949318,3.7936075,3.7924109,3.7913634,3.7904789,3.7897575,3.7891858,3.7887543,3.7884744,3.7883857,3.7885484,3.7890175,3.789847,3.791088,3.7927655,3.7948847,3.797448,3.8004391,3.8038036,3.8074499,3.8112409,3.8150231,3.81865,3.8219998,3.8249831,3.8275395,3.8296505,3.8313437,3.8326657,3.8336791,3.8344863,3.8352203,3.8359901,3.8368534,3.8378229,3.8388748,3.8399776,3.8410901,3.8421622,3.8431547,3.8440406,3.844803,3.8454617,3.8460748,3.8467177,3.8474482,3.848277,3.8491782,3.8501136,3.8510314,3.8518851,3.852647,3.8533113,3.8538966,3.8544202,3.8548935,3.85533,3.855738,3.8561149,3.8564644,3.8567949,3.8571065,3.8573839,3.8575995,3.8577079,3.8576686,3.8574671,3.8570918,3.8565368,3.8558087,3.8549216,3.8538951,3.8527536,3.851522,3.8502304,3.8489031,3.8475555,3.8462141,3.8449044,3.8436474,3.8424558,3.8413297,3.8402615,3.8392527,3.8383023,3.8373731,3.8364102,3.8353756,3.8342543,3.833054,3.8317972,3.8304824,3.829089,3.8276113,3.8260697,3.8245117,3.823005,3.8216271,3.8204321,3.8194583,3.818739,3.8183118,3.8182402,3.8185728,3.8193208,3.8204859,3.8220553,3.8240002,3.8263324,3.8291507,3.8326277,3.836898,3.8419892,3.8478392,3.8543459,3.8614353,3.8691068,3.8774205,3.8864409,3.8961749,3.906538,3.9173508,3.9283723,3.9393843,3.9502795,3.9610336,3.9715902,3.9818097,3.9914955,4.0004697,4.0086476,4.0160401,4.0226845,4.028622,4.0338956,4.0385251,4.0425321,4.0459321,4.0486947,4.0507977,4.0522867,4.0532247,4.0536367,4.0535638,4.0530754,4.0522295,4.0510744,4.049659,4.0480103,4.0461665,4.0441977,4.0421624,4.0400964,4.0380135,4.0359069,4.0337853,4.0316746,4.0295871,4.0275126,4.0254447,4.0234077,4.0214273,4.0194902,4.0175626,4.0156235,4.0136845,4.0117749,4.0098836,4.0079862,4.0060788,4.0041789,4.0023234,4.0005211,3.9987746,3.9971114,3.9955573,3.9941185,3.9928076,3.991657,3.9906723,3.989839,3.9891508,3.9886269,3.9882968,3.9881735,3.9882586,3.9885541,3.9890644,3.9897732,3.9906623,3.991728,3.9929665,3.9943608,3.9959067,3.9975739,3.9993193,4.0011259,4.0029621,4.0048009,4.0066284,4.0084503,4.0102487,4.0119771,4.0136318,4.0152247,4.016722,4.0180956,4.0193686,4.0205605,4.0216817,4.022729,4.0237006,4.024599,4.0254263,4.0261735,4.0268242,4.0274034,4.0279436,4.0284514,4.0289196,4.0293604,4.0297883,4.0301635,4.0304613,4.0307174,4.0309772,4.0312098,4.0313779,4.0314813,4.0315361,4.0315328,4.0314851,4.031397,4.0312327,4.0309799,4.0306605,4.0303074,4.0298985,4.0294214,4.0288811,4.0282696,4.0276119,4.0269616,4.0263584,4.0257838,4.0251956,4.0245758,4.0239162,4.0232301,4.0225313,4.0217961,4.0210372,4.0202756,4.0194948,4.0186998,4.0179311,4.0172067,4.0165527,4.0159507,4.0153697,4.0147946,4.0141965,4.0135915,4.0129842,4.0123361,4.0116214,4.0108589,4.0100737,4.0093124,4.0085692,4.0078175,4.0070845,4.006397,4.0057213,4.0050082,4.0042754,4.003548,4.0028138,4.0020703,4.0013511,4.0006628,4.000013,3.9994169,3.9988958,3.9984888,3.9982372,3.9981543,3.9982489,3.9985124,3.9989442,3.9995749,4.0004783,4.0016941,4.0032014,4.0049613,4.0069479,4.0091189,4.0114533,4.0139555,4.0165635,4.0191973,4.0218033,4.0243601,4.0268607,4.0292925,4.0316595,4.0339823,4.0362498,4.0384215,4.0405046,4.0424836,4.0443119,4.0459669,4.0475037,4.0488824,4.0500512,4.0509995,4.0517009,4.0521989,4.0525866,4.052928,4.0532672,4.0536275,4.0540999,4.0547702,4.0556669,4.0566968,4.0577686,4.0589335,4.0602053,4.0615103,4.0627033,4.0636885,4.0644157,4.0649155,4.0652772,4.0656631,4.0661565,4.0666679,4.0671831,4.0676782,4.0680741,4.0683764,4.0686023,4.0687495,4.0688648,4.0690163,4.0691968,4.069347,4.0694536,4.0695224,4.0695565,4.0694911,4.0693227,4.0690784,4.0687673,4.0684608,4.0681839,4.0679946,4.0679395,4.0679812,4.0680691,4.0681418,4.0682123,4.0683128,4.0684655,4.0686609,4.068844,4.0690303,4.0692583,4.0695124,4.0697552,4.0699893,4.0702928,4.0706882,4.0711788,4.0717847,4.0724978,4.0733393,4.074317,4.0754368,4.0766112,4.0777457,4.078933,4.0802727,4.0817448,4.0833187,4.0849395,4.0866286,4.088429,4.0903368,4.0923489,4.094407,4.0965211,4.0986469,4.1007383,4.1028609,4.1050956,4.1074511,4.1098043,4.1121353,4.114484,4.1169214,4.1194792,4.1220065,4.1244091,4.1267838,4.1291813,4.1315948,4.1339942,4.1362437,4.1383276,4.1403968,4.1424444,4.1443708,4.1461902,4.1477842,4.1491601,4.1505085,4.1518009,4.1529276,4.1538112,4.1544365,4.1548939,4.1551763,4.1552401
326,5,1,4.9443957,4.952774,4.9598947,4.965796,4.9704517,4.9739376,4.9764001,4.9780051,4.9789253,4.9792911,4.9790668,4.978151,4.9766521,4.974821,4.9727614,4.9704528,4.9680477,4.9657297,4.9634629,4.9611759,4.9589417,4.9569044,4.9550326,4.9531419,4.9511668,4.9491214,4.9470121,4.9447897,4.9423884,4.9397658,4.9369076,4.9338608,4.9306192,4.9272459,4.9238474,4.9204913,4.9172316,4.9141409,4.9111651,4.9082525,4.905345,4.9024367,4.8994853,4.8964078,4.8930655,4.889394,4.8853586,4.8809577,4.8761863,4.8710916,4.8656834,4.8600169,4.8541566,4.8482085,4.8422518,4.8363172,4.8304359,4.8246259,4.8189506,4.8134252,4.8080332,4.8027542,4.7975689,4.7924415,4.787324,4.7821742,4.7769905,4.771803,4.7666381,4.7614847,4.7563177,4.7511029,4.7458197,4.7404633,4.7350289,4.7294978,4.7238562,4.7180973,4.7122349,4.7063119,4.7003876,4.6945057,4.6886999,4.6829896,4.67737,4.6718174,4.6663275,4.660902,4.6555318,4.6501922,4.6448834,4.6396117,4.6343651,4.6291716,4.624045,4.6189777,4.6139909,4.6090854,4.6042432,4.5994712,4.5947762,4.590128,4.585505,4.5808952,4.5763148,4.5717946,4.5673712,4.563083,4.5589492,4.5549736,4.5511549,4.5474719,4.5438926,4.5403786,4.5368767,4.5333512,4.5297527,4.5260193,4.522112,4.5180162,4.5137264,4.509265,4.5046734,4.5000075,4.49533,4.4907177,4.4862216,4.4818411,4.4775413,4.4732927,4.4690908,4.4649419,4.4608696,4.4568864,4.4529976,4.4492098,4.4455296,4.4419726,4.4385334,4.4352062,4.4319755,4.4288306,4.4257673,4.4227768,4.4198508,4.4169846,4.4141732,4.4114099,4.4086934,4.4060182,4.4033799,4.4007753,4.3982013,4.3956603,4.3931491,4.3906655,4.3882084,4.3857767,4.3833779,4.3810091,4.3786716,4.3763667,4.3740956,4.3718649,4.3696734,4.3675168,4.3653915,4.3632978,4.3612346,4.3592044,4.3572084,4.3552387,4.3532933,4.351375,4.3494813,4.3476034,4.3457293,4.3438543,4.3419744,4.3400875,4.3381841,4.3362618,4.3343299,4.3323925,4.3304527,4.328513,4.3265764,4.3246512,4.3227478,4.3208768,4.3190369,4.3172189,4.315423,4.3136592,4.3119329,4.3102432,4.3085782,4.3069237,4.3052705,4.303621,4.3019785,4.3003369,4.2986944,4.2970572,4.2954368,4.2938384,4.2922682,4.2907462,4.2892837,4.2878656,4.2864809,4.285131,4.2838155,4.2825299,4.2812771,4.2800604,4.2788752,4.2777157,4.2765669,4.2754267,4.2742915,4.2731592,4.2720318,4.2709135,4.2698053,4.2687099,4.2676368,4.2665902,4.2655779,4.2646086,4.2636848,4.2628098,4.261984,4.2612227,4.2605276,4.2599089,4.2593673,4.2588932,4.258491,4.2581727,4.2579456,4.2578205,4.2578016,4.2578929,4.2580976,4.2584143,4.25884,4.2593634,4.259973,4.2606578,4.2614069,4.2622048,4.2630299,4.2638498,4.2646265,4.2653214,4.2658973,4.2663212,4.2665738,4.2666453,4.2665393,4.2662684,4.2658551,4.2653259,4.264708,4.2640325,4.2633318,4.2626396,4.2619888,4.2614166,4.2609663,4.2606823,4.2606049,4.2607727,4.2612256,4.2619996,4.2631217,4.2646042,4.2664435,4.2686116,4.2710728,4.2737852,4.2767052,4.2797964,4.2830228,4.2863484,4.2897285,4.2931091,4.2964212,4.2995887,4.3025449,4.305226,4.3075877,4.3096041,4.3112687,4.3125923,4.3135985,4.314311,4.314764,4.3149874,4.3150096,4.3148597,4.3145617,4.3141376,4.3136027,4.3129698,4.3122447,4.3114308,4.3105271,4.3095333,4.3084475,4.3072782,4.306035,4.3047292,4.3033717,4.3019729,4.300546,4.2991017,4.297647,4.2961931,4.2947481,4.2933209,4.2919126,4.2905253,4.289159,4.287807,4.2864634,4.2851198,4.2837697,4.2824069,4.2810306,4.2796467,4.2782637,4.2768924,4.2755442,4.2742288,4.2729551,4.271729,4.2705592,4.2694508,4.2684041,4.2674201,4.266492,4.2656281,4.2648221,4.2640589,4.2633242,4.2626274,4.2620007,4.261458,4.2633396,4.2630576,4.2628733,4.2627816,4.2627762,4.2628501,4.2630035,4.263227,4.2635414,4.2640317,4.2648219,4.2660304,4.2677663,4.2701409,4.2732683,4.2771936,4.2818711,4.2872621,4.2933316,4.3000284,4.307294,4.3150514,4.3232154,4.3316932,4.3403886,4.3492081,4.3580499,4.366818,4.3754179,4.383759,4.3917734,4.3994074,4.4066257,4.4134307,4.4198611,4.4259725,4.4318302,4.4375039,4.4430444,4.4484675,4.4537569,4.458875,4.4637529,4.468308,4.4724666,4.4761587,4.4793352,4.4819702,4.4840397,4.4855355,4.486459,4.4868085,4.4865814,4.4857669,4.4843558,4.4823501,4.4797758,4.4766823,4.473149,4.4692789,4.4651874,4.4609846,4.4567581,4.4525898,4.4485563,4.4447077,4.4410741,4.4376711,4.4345049,4.4315909,4.4289423,4.4265498,4.4244,4.4224801,4.4207708,4.4192488,4.4178885,4.4166764,4.4156038,4.4146504,4.4137914,4.4130068,4.4122792,4.4115835,4.41089,4.4101706,4.4094034,4.4085757,4.4076784,4.4067177,4.4056965,4.4046294,4.4035572,4.4025288,4.4015825,4.4007462,4.4000594,4.3995526,4.3992408,4.3991371,4.3992563,4.3996244,4.4002702,4.4012061,4.402446,4.4040103,4.4059183,4.4081838,4.4108138,4.4138267,4.4172373,4.4210514,4.4252751,4.4299042,4.4349363,4.4403482,4.4460988,4.4521429,4.4584419,4.4649571,4.4716335,4.4784205,4.4852823,4.4921727,4.4990479,4.505883,4.512655,4.5193254,4.5258468,4.5321816,4.5382962,4.5441697,4.5498033,4.5551978,4.5603625,4.5653471,4.5702263,4.5751095,4.5801808,4.5856659,4.5917712,4.5986338,4.6062984,4.6147524,4.6239851,4.6339917,4.6447614,4.6562418,4.6683457,4.6809805,4.6940391,4.707399,4.7209271,4.7344689,4.7478544,4.7609102,4.7734929,4.7855047,4.7968619,4.8074759,4.817295,4.8263115,4.8345311,4.8419431,4.8485525,4.8544344,4.8596597,4.8642496,4.8682479,4.8717237,4.8747153,4.8772739,4.8794888,4.8814266,4.8830952,4.8845101,4.8857164,4.886766,4.8876902,4.8884947,4.8891857,4.8897576,4.8902031,4.8905185,4.8906968,4.8907304,4.8906206,4.8903863,4.8900461,4.8896198,4.8891162,4.8885218,4.8878337,4.8870637,4.8862235,4.8853217,4.8843648,4.8833752,4.8823683,4.8813469,4.8803165,4.8792728,4.8782099,4.8771344,4.8760616,4.8749954,4.8739311,4.8728617,4.8717989,4.870761,4.8697507,4.868781,4.8678596,4.8669752,4.8661321,4.8653477,4.8646371,4.8639973,4.8634218,4.8629014,4.8623998,4.8618962,4.8614112,4.8609616,4.8605404,4.8601411,4.8597628,4.8594062,4.8590752,4.8587711,4.8584722,4.8581505,4.8578183,4.8574766,4.8570917,4.8566579,4.8561791,4.855643,4.8550383,4.8543473,4.8535662,4.8526948,4.851717,4.850623,4.8494249,4.848134,4.8467361,4.845225,4.8436154,4.8419197,4.8401384,4.8382846,4.8363775,4.8344296,4.8324553,4.8304644,4.8284585,4.8264316,4.8243852,4.8223311,4.8202822,4.8182493,4.8162347,4.8142406,4.812263,4.8102989,4.8083646,4.8064753,4.8046355,4.8028449,4.8011188,4.799463,4.7978759,4.7963614,4.7949318,4.7936075,4.7924109,4.7913634,4.7904789,4.7897575,4.7891858,4.7887543,4.7884744,4.7883857,4.7885484,4.7890175,4.789847,4.791088,4.7927655,4.7948847,4.797448,4.8004391,4.8038036,4.8074499,4.8112409,4.8150231,4.81865,4.8219998,4.8249831,4.8275395,4.8296505,4.8313437,4.8326657,4.8336791,4.8344863,4.8352203,4.8359901,4.8368534,4.8378229,4.8388748,4.8399776,4.8410901,4.8421622,4.8431547,4.8440406,4.844803,4.8454617,4.8460748,4.8467177,4.8474482,4.848277,4.8491782,4.8501136,4.8510314,4.8518851,4.852647,4.8533113,4.8538966,4.8544202,4.8548935,4.85533,4.855738,4.8561149,4.8564644,4.8567949,4.8571065,4.8573839,4.8575995,4.8577079,4.8576686,4.8574671,4.8570918,4.8565368,4.8558087,4.8549216,4.8538951,4.8527536,4.851522,4.8502304,4.8489031,4.8475555,4.8462141,4.8449044,4.8436474,4.8424558,4.8413297,4.8402615,4.8392527,4.8383023,4.8373731,4.8364102,4.8353756,4.8342543,4.833054,4.8317972,4.8304824,4.829089,4.8276113,4.8260697,4.8245117,4.823005,4.8216271,4.8204321,4.8194583,4.818739,4.8183118,4.8182402,4.8185728,4.8193208,4.8204859,4.8220553,4.8240002,4.8263324,4.8291507,4.8326277,4.836898,4.8419892,4.8478392,4.8543459,4.8614353,4.8691068,4.8774205,4.8864409,4.8961749,4.906538,4.9173508,4.9283723,4.9393843,4.9502795,4.9610336,4.9715902,4.9818097,4.9914955,5.0004697,5.0086476,5.0160401,5.0226845,5.028622,5.0338956,5.0385251,5.0425321,5.0459321,5.0486947,5.0507977,5.0522867,5.0532247,5.0536367,5.0535638,5.0530754,5.0522295,5.0510744,5.049659,5.0480103,5.0461665,5.0441977,5.0421624,5.0400964,5.0380135,5.0359069,5.0337853,5.0316746,5.0295871,5.0275126,5.0254447,5.0234077,5.0214273,5.0194902,5.0175626,5.0156235,5.0136845,5.0117749,5.0098836,5.0079862,5.0060788,5.0041789,5.0023234,5.0005211,4.9987746,4.9971114,4.9955573,4.9941185,4.9928076,4.991657,4.9906723,4.989839,4.9891508,4.9886269,4.9882968,4.9881735,4.9882586,4.9885541,4.9890644,4.9897732,4.9906623,4.991728,4.9929665,4.9943608,4.9959067,4.9975739,4.9993193,5.0011259,5.0029621,5.0048009,5.0066284,5.0084503,5.0102487,5.0119771,5.0136318,5.0152247,5.016722,5.0180956,5.0193686,5.0205605,5.0216817,5.022729,5.0237006,5.024599,5.0254263,5.0261735,5.0268242,5.0274034,5.0279436,5.0284514,5.0289196,5.0293604,5.0297883,5.0301635,5.0304613,5.0307174,5.0309772,5.0312098,5.0313779,5.0314813,5.0315361,5.0315328,5.0314851,5.031397,5.0312327,5.0309799,5.0306605,5.0303074,5.0298985,5.0294214,5.0288811,5.0282696,5.0276119,5.0269616,5.0263584,5.0257838,5.0251956,5.0245758,5.0239162,5.0232301,5.0225313,5.0217961,5.0210372,5.0202756,5.0194948,5.0186998,5.0179311,5.0172067,5.0165527,5.0159507,5.0153697,5.0147946,5.0141965,5.0135915,5.0129842,5.0123361,5.0116214,5.0108589,5.0100737,5.0093124,5.0085692,5.0078175,5.0070845,5.006397,5.0057213,5.0050082,5.0042754,5.003548,5.0028138,5.0020703,5.0013511,5.0006628,5.000013,4.9994169,4.9988958,4.9984888,4.9982372,4.9981543,4.9982489,4.9985124,4.9989442,4.9995749,5.0004783,5.0016941,5.0032014,5.0049613,5.0069479,5.0091189,5.0114533,5.0139555,5.0165635,5.0191973,5.0218033,5.0243601,5.0268607,5.0292925,5.0316595,5.0339823,5.0362498,5.0384215,5.0405046,5.0424836,5.0443119,5.0459669,5.0475037,5.0488824,5.0500512,5.0509995,5.0517009,5.0521989,5.0525866,5.052928,5.0532672,5.0536275,5.0540999,5.0547702,5.0556669,5.0566968,5.0577686,5.0589335,5.0602053,5.0615103,5.0627033,5.0636885,5.0644157,5.0649155,5.0652772,5.0656631,5.0661565,5.0666679,5.0671831,5.0676782,5.0680741,5.0683764,5.0686023,5.0687495,5.0688648,5.0690163,5.0691968,5.069347,5.0694536,5.0695224,5.0695565,5.0694911,5.0693227,5.0690784,5.0687673,5.0684608,5.0681839,5.0679946,5.0679395,5.0679812,5.0680691,5.0681418,5.0682123,5.0683128,5.0684655,5.0686609,5.068844,5.0690303,5.0692583,5.0695124,5.0697552,5.0699893,5.0702928,5.0706882,5.0711788,5.0717847,5.0724978,5.0733393,5.074317,5.0754368,5.0766112,5.0777457,5.078933,5.0802727,5.0817448,5.0833187,5.0849395,5.0866286,5.088429,5.0903368,5.0923489,5.094407,5.0965211,5.0986469,5.1007383,5.1028609,5.1050956,5.1074511,5.1098043,5.1121353,5.114484,5.1169214,5.1194792,5.1220065,5.1244091,5.1267838,5.1291813,5.1315948,5.1339942,5.1362437,5.1383276,5.1403968,5.1424444,5.1443708,5.1461902,5.1477842,5.1491601,5.1505085,5.1518009,5.1529276,5.1538112,5.1544365,5.1548939,5.1551763,5.1552401
